index;wform;noise;wform_noisy;y_filtfilt;y_filter
1;0.000000000000000;0.053766713954610;0.053766713954610;0.054139415363205;0.000000000317014
2;0.000273373428103;0.183388501459509;0.183661874887611;0.036004144272558;0.000000007547177
3;0.000546746856206;-0.225884686100365;-0.225337939244159;0.021626777047526;0.000000085558682
4;0.000820120284308;0.086217332036812;0.087037452321120;0.014049417345366;0.000000621812362
5;0.001093493712411;0.031876523985898;0.032970017698309;0.014988156628400;0.000003284035568
6;0.001366867140514;-0.130768829630527;-0.129401962490013;0.024516514406990;0.000013529697058
7;0.001640240568617;-0.043359202230568;-0.041718961661952;0.041076456982243;0.000045540489936
8;0.001913613996720;0.034262446653865;0.036176060650585;0.061810093259621;0.000129419078000
9;0.002186987424822;0.357839693972576;0.360026681397398;0.083140220429074;0.000318211140321
10;0.002460360852925;0.276943702988488;0.279404063841413;0.101478697916489;0.000689727643782
11;0.002733734281028;-0.134988694015652;-0.132254959734624;0.113918103755812;0.001337171302284
12;0.003007107709131;0.303492346633186;0.306499454342316;0.118768651824482;0.002345211312854
13;0.003280481137233;0.072540422494611;0.075820903631844;0.115836926815329;0.003755128037681
14;0.003553854565336;-0.006305487318966;-0.002751632753629;0.106397829869584;0.005532143391874
15;0.003827227993439;0.071474290382610;0.075301518376049;0.092874416375075;0.007555278224256
16;0.004100601421542;-0.020496605829978;-0.016396004408436;0.078298827558840;0.009648974423678
17;0.004373974849645;-0.012414434821631;-0.008040459971987;0.065669440701416;0.011662769838543
18;0.004647348277747;0.148969760778546;0.153617109056294;0.057336669224967;0.013583076120727
19;0.004920721705850;0.140903448980048;0.145824170685898;0.054539848140785;0.015638421382262
20;0.005194095133953;0.141719241342961;0.146913336476914;0.057183341973642;0.018347738994725
21;0.005467468562056;0.067149713360808;0.072617181922864;0.063889250021857;0.022468787592551
22;0.005740841990159;-0.120748692268504;-0.115007850278345;0.072307725662602;0.028831687691606
23;0.006014215418261;0.071723865132884;0.077738080551145;0.079615518374505;0.038083417340789
24;0.006287588846364;0.163023528916473;0.169311117762837;0.083098733045470;0.050408938220350
25;0.006560962274467;0.048889377031179;0.055450339305646;0.080703204162097;0.065317578902290
26;0.006834335702570;0.103469300991786;0.110303636694356;0.071446817477066;0.081577791116724
27;0.007107709130673;0.072688513338324;0.079796222468996;0.055619307303103;0.097347551546407
28;0.007381082558775;-0.030344092478602;-0.022963009919826;0.034739351999298;0.110491476158554
29;0.007654455986878;0.029387146709666;0.037041602696544;0.011286769790542;0.119017806214329
30;0.007927829414981;-0.078728280375864;-0.070800450960883;-0.011730373477516;0.121528654293562
31;0.008201202843084;0.088839563175764;0.097040766018848;-0.031285834744439;0.117568219114740
32;0.008474576271186;-0.114707010696915;-0.106232434425729;-0.044825065831438;0.107777725809489
33;0.017655367231638;-0.106887045816803;-0.089231678585165;-0.050647403778353;0.093813793279380
34;0.026836158192090;-0.080949869442488;-0.054113711250397;-0.048119166464827;0.078044111812489
35;0.036016949152542;-0.294428416199490;-0.258411467046947;-0.037692273739392;0.063085695623030
36;0.045197740112994;0.143838029281510;0.189035769394504;-0.020741212341269;0.051285071599762
37;0.054378531073446;0.032519053945620;0.086897585019066;0.000736164252888;0.044250379331779
38;0.063559322033898;-0.075492831916970;-0.011933509883072;0.024487379265395;0.042531807494430
39;0.072740112994350;0.137029854009523;0.209769967003873;0.048370634976801;0.045513494274268
40;0.081920903954802;-0.171151641885370;-0.089230737930568;0.070652069837021;0.051535489550562
41;0.091101694915254;-0.010224244608549;0.080877450306705;0.090190467590405;0.058219144710763
42;0.100282485875706;-0.024144704160736;0.076137781714970;0.106491589700507;0.062932807341081
43;0.109463276836158;0.031920673916550;0.141383950752708;0.119641526447634;0.063312537583355
44;0.118644067796610;0.031285859663743;0.149929927460353;0.130150677342706;0.057745750272754
45;0.127824858757062;-0.086487991732446;0.041336867024617;0.138753206305356;0.045732411290686
46;0.137005649717514;-0.003005129619627;0.134000520097887;0.146209368255829;0.028056600941266
47;0.146186440677966;-0.016487901920904;0.129698538757062;0.153150665035197;0.006729709299526
48;0.155367231638418;0.062770728752873;0.218137960391291;0.159993049593237;-0.015296223142446
49;0.164548022598870;0.109326566903948;0.273874589502819;0.166925256090665;-0.034604456934806
50;0.173728813559322;0.110927329761440;0.284656143320762;0.173961937544294;-0.047898913952036
51;0.182909604519774;-0.086365282198872;0.096544322320903;0.181038141998015;-0.052591950572072
52;0.192090395480226;0.007735909113042;0.199826304593269;0.188114960762043;-0.047280670767506
53;0.201271186440678;-0.121411704361541;0.079859482079137;0.195266569883363;-0.032014754461232
54;0.210451977401130;-0.111350074148676;0.099101903252454;0.202725502217808;-0.008297152483454
55;0.219632768361582;-0.000684932810335;0.218947835551247;0.210873869237112;0.021188196780576
56;0.228813559322034;0.153263030828475;0.382076590150509;0.220180872553146;0.053070620334894
57;0.237994350282486;-0.076966591375368;0.161027758907118;0.231098773340383;0.083909036576846
58;0.247175141242938;0.037137881276006;0.284313022518944;0.243938439026676;0.110801353260569
59;0.256355932203390;-0.022558440227125;0.233797491976265;0.258750301876421;0.131857601054704
60;0.265536723163842;0.111735613881447;0.377272337045288;0.275236502769324;0.146438740316009
61;0.274717514124294;-0.108906429505224;0.165811084619070;0.292715377477697;0.155120024317900
62;0.283898305084746;0.003255746416497;0.287154051501243;0.310151112866262;0.159405787402642
63;0.293079096045198;0.055252702111222;0.348331798156420;0.326250643752758;0.161282198936358
64;0.302259887005650;0.110061021788087;0.412320908793736;0.339618246491923;0.162728555650341
65;0.311440677966102;0.154421189550395;0.465861867516497;0.348947514271587;0.165307134150234
66;0.320621468926554;0.008593113317543;0.329214582244096;0.353222155978319;0.169918880702019
67;0.329802259887006;-0.149159031063761;0.180643228823245;0.351892836622930;0.176759525517857
68;0.338983050847458;-0.074230183725986;0.264752867121472;0.344998156635192;0.185455318247128
69;0.329802259887006;-0.106158173331999;0.223644086555007;0.333204288279185;0.195315468995900
70;0.320621468926554;0.235045722400204;0.555667191326758;0.317749329212962;0.205618952730616
71;0.311440677966102;-0.061560188146689;0.249880489819412;0.300293698891646;0.215857293833077
72;0.302259887005650;0.074807678370399;0.377067565376048;0.282694575312161;0.225876197712393
73;0.293079096045198;-0.019241851058826;0.273837244986371;0.266737485844436;0.235889003068392
74;0.283898305084746;0.088861042542072;0.372759347626818;0.253868616632744;0.246366900424440
75;0.274717514124294;-0.076484923656787;0.198232590467506;0.244974576189179;0.257839919421180
76;0.265536723163842;-0.140226896933876;0.125309826229966;0.240250782376007;0.270664623136814
77;0.256355932203390;-0.142237592509150;0.114118339694240;0.239185544336308;0.284824414565738
78;0.247175141242938;0.048819390985994;0.295994532228932;0.240666348024127;0.299822085360923
79;0.237994350282486;-0.017737515661883;0.220256834620603;0.243191529057131;0.314700906182119
80;0.228813559322034;-0.019605348780733;0.209208210541301;0.245149121761113;0.328194928969711
81;0.219632768361582;0.141931015064255;0.361563783425837;0.245109919399248;0.338971201604976
82;0.210451977401130;0.029158437398418;0.239610414799548;0.242077310108790;0.345898533293653
83;0.201271186440678;0.019781105346436;0.221052291787114;0.235643895591977;0.348269402411815
84;0.192090395480226;0.158769908997406;0.350860304477632;0.226023321902425;0.345917205608687
85;0.182909604519774;-0.080446595634955;0.102463008884819;0.213951676426752;0.339205287820820
86;0.173728813559322;0.069662441584961;0.243391255144283;0.200480842209615;0.328904834294540
87;0.164548022598870;0.083508816507268;0.248056839106138;0.186710181877571;0.316011065275327
88;0.155367231638418;-0.024371514037795;0.130995717600623;0.173517296417235;0.301560028931676
89;0.146186440677966;0.021567008640374;0.167753449318341;0.161349760941849;0.286498215296322
90;0.137005649717514;-0.116584393148205;0.020421256569309;0.150126950890255;0.271629578800430
91;0.127824858757062;-0.114795277889859;0.013029580867203;0.139276781154183;0.257630964730858
92;0.118644067796610;0.010487471601649;0.129131539398260;0.127901558131126;0.245100386661894
93;0.109463276836158;0.072225403222500;0.181688680058658;0.115036982633779;0.234592422225772
94;0.100282485875706;0.258549125261624;0.358831611137330;0.099945529643220;0.226603654492006
95;0.091101694915254;-0.066689067070139;0.024412627845116;0.082375367442170;0.221494154814659
96;0.081920903954802;0.018733102457894;0.100654006412696;0.062721292267070;0.219359821682615
97;0.072740112994350;-0.008249442537096;0.064490670457255;0.042044043875738;0.219895617443234
98;0.063559322033898;-0.193302291785099;-0.129742969751200;0.021934722651756;0.222303826984066
99;0.054378531073446;-0.043896615393477;0.010481915679969;0.004245314153725;0.225299525087546
100;0.045197740112994;-0.179467884145512;-0.134270144032518;-0.009262978230188;0.227245726879672
101;0.036016949152542;0.084037552975391;0.120054502127933;-0.017281623116585;0.226415711808252
102;0.026836158192090;-0.088803208232901;-0.061967050040811;-0.019249694587972;0.221337791754869
103;0.017655367231638;0.010009283313932;0.027664650545571;-0.015515927541271;0.211141338842486
104;0.008474576271186;-0.054452892999055;-0.045978316727868;-0.007327569557849;0.195806494596205
105;0.008290346352248;0.030352079464935;0.038642425817183;0.003359559794513;0.176233448185173
106;0.008106116433309;-0.060032656213373;-0.051926539780065;0.014218669232296;0.154090610995438
107;0.007921886514370;0.048996532117395;0.056918418631765;0.022975007622519;0.131463121521139
108;0.007737656595431;0.073936312360447;0.081673968955879;0.027832981481766;0.110384296540674
109;0.007553426676492;0.171188778298156;0.178742204974648;0.027823063692221;0.092372102133148
110;0.007369196757553;-0.019412353575827;-0.012043156818273;0.022997971278229;0.078096437960617
111;0.007184966838615;-0.213835526943994;-0.206650560105379;0.014435580368144;0.067269107195867
112;0.007000736919676;-0.083958874733661;-0.076958137813986;0.004042835157600;0.058787407556964
113;0.006816507000737;0.135459432800464;0.142275939801201;-0.005806610601821;0.051093090625601
114;0.006632277081798;-0.107215528838425;-0.100583251756627;-0.012735524458685;0.042650914962878
115;0.006448047162859;0.096095386974057;0.102543434136916;-0.014840784771016;0.032419906036575
116;0.006263817243920;0.012404980000319;0.018668797244240;-0.011094765731759;0.020192181323627
117;0.006079587324982;0.143669662271894;0.149749249596875;-0.001591995150080;0.006707237023347
118;0.005895357406043;-0.196089999936503;-0.190194642530461;0.012409961868519;-0.006493953596557
119;0.005711127487104;-0.019769822597415;-0.014058695110311;0.028669047500209;-0.017443607644787
120;0.005526897568165;-0.120784548525980;-0.115257650957815;0.044329713487689;-0.024257695448299
121;0.005342667649226;0.290800803072936;0.296143470722162;0.056422984217969;-0.025650381275776
122;0.005158437730287;0.082521889422849;0.087680327153137;0.062406702686740;-0.021315819307621
123;0.004974207811349;0.137897197791661;0.142871405603010;0.060647399080848;-0.012074078536362
124;0.004789977892410;-0.105818025798736;-0.101028047906326;0.050753410577058;0.000259464293537
125;0.004605747973471;-0.046861558110062;-0.042255810136592;0.033693821958029;0.013248581490990
126;0.004421518054532;-0.027246940925019;-0.022825422870487;0.011675319871301;0.024359879190586
127;0.004237288135593;0.109842461788862;0.114079749924456;-0.012207382379906;0.031507929020030
128;0.004053058216654;-0.027787193278764;-0.023734135062110;-0.034490086112968;0.033495930493224
129;0.003868828297716;0.070154145816328;0.074022974114044;-0.051936788267286;0.030257399872925
130;0.003684598378777;-0.205181629991115;-0.201497031612338;-0.062109936855608;0.022853010133176
131;0.003500368459838;-0.035384999777443;-0.031884631317605;-0.063809084316232;0.013229690958476
132;0.003316138540899;-0.082358652515685;-0.079042513974786;-0.057295375584040;0.003796622260518
133;0.003131908621960;-0.157705702279920;-0.154573793657960;-0.044256699838319;-0.003092056284448
134;0.002947678703021;0.050797465090595;0.053745143793616;-0.027515028010981;-0.005640483140838
135;0.002763448784083;0.028198406367056;0.030961855151138;-0.010525037905121;-0.002996826121173
136;0.002579218865144;0.003347988224445;0.005927207089589;0.003247251622867;0.004556340731854
137;0.002394988946205;-0.133367794342811;-0.130972805396606;0.010953086681403;0.015642814471443
138;0.002210759027266;0.112749227834159;0.114959986861425;0.010880561520157;0.028051756637970
139;0.002026529108327;0.035017941060331;0.037044470168658;0.002767112778488;0.039158429089694
140;0.001842299189388;-0.029906603033298;-0.028064303843910;-0.012156130922389;0.046421419791215
141;0.001658069270450;0.002288979275163;0.003947048545613;-0.031399937039615;0.047861569554818
142;0.001473839351511;-0.026199543496609;-0.024725704145099;-0.051691848531926;0.042436624447072
143;0.001289609432572;-0.175021236844679;-0.173731627412107;-0.069604002250899;0.030248413039113
144;0.001105379513633;-0.028565097159533;-0.027459717645900;-0.082217405573136;0.012550490437481
145;0.000921149594694;-0.083136651156762;-0.082215501562068;-0.087697671939344;-0.008441793507937
146;0.000736919675755;-0.097920630516730;-0.097183710840975;-0.085672284351273;-0.029905010982979
147;0.000552689756817;-0.115640165566400;-0.115087475809584;-0.077335561777864;-0.048866104324408
148;0.000368459837878;-0.053355710931599;-0.052987251093721;-0.065257985406473;-0.062691035020718
149;0.000184229918939;-0.200263573588306;-0.200079343669367;-0.052931867450006;-0.069524996439553
150;0.000000000000000;0.096422942263163;0.096422942263163;-0.044134947529909;-0.068612807288586
151;-0.026194144838213;0.052006010145546;0.025811865307333;-0.042227849330247;-0.060445589300259
152;-0.052388289676425;-0.002002785164254;-0.054391074840679;-0.049513817956108;-0.046705656475134
153;-0.078582434514638;-0.003477108602848;-0.082059543117486;-0.066777427776018;-0.030012859866285
154;-0.104776579352851;-0.079816358456414;-0.184592937809265;-0.093085365461309;-0.013508235982323
155;-0.130970724191063;0.101868528212858;-0.029102195978206;-0.125883564871581;-0.000339320228540
156;-0.157164869029276;-0.013321747950774;-0.170486616980049;-0.161370424233678;0.006869424296015
157;-0.183359013867488;-0.071453016378716;-0.254812030246204;-0.195076089071004;0.006471634674135
158;-0.209553158705701;0.135138576842666;-0.074414581863035;-0.222542235585503;-0.001901513575739
159;-0.235747303543914;-0.022477105605258;-0.258224409149172;-0.239981857483638;-0.017256557079830
160;-0.261941448382126;-0.058902903072080;-0.320844351454207;-0.244806456913414;-0.037393452272155
161;-0.288135593220339;-0.029375359773542;-0.317510952993881;-0.235936433405496;-0.059286484662548
162;-0.236610169491525;-0.084792624363793;-0.321402793855319;-0.213853080170591;-0.079632299949815
163;-0.185084745762712;-0.112012830124373;-0.297097575887085;-0.180398630344431;-0.095470519928451
164;-0.133559322033898;0.252599969211831;0.119040647177933;-0.138374803579308;-0.104761340582916
165;-0.082033898305085;0.165549759288735;0.083515860983650;-0.091022160844246;-0.106805950796332
166;-0.030508474576271;0.030753515923825;0.000245041347554;-0.041477071348666;-0.102421679299308
167;0.021016949152542;-0.125711835935205;-0.104694886782663;0.007701168967141;-0.093829754240088
168;0.072542372881356;-0.086546803055480;-0.014004430174124;0.054861108830539;-0.084268701321432
169;0.124067796610170;-0.017653411423145;0.106414385187024;0.099407256111328;-0.077397707720759
170;0.175593220338983;0.079141606162863;0.254734826501847;0.141760113864926;-0.076591468524131
171;0.227118644067797;-0.133200442131525;0.093918201936272;0.183154467209858;-0.084246703256269
172;0.278644067796610;-0.232986715580508;0.045657352216103;0.225325080406942;-0.101221254841498
173;0.330169491525424;-0.144909729283874;0.185259762241550;0.270139891741046;-0.126511269441952
174;0.381694915254237;0.033351083306581;0.415045998560818;0.319239734519090;-0.157240730096216
175;0.433220338983051;0.039135360443290;0.472355699426341;0.373732994528742;-0.188990593652489
176;0.484745762711865;0.045167941892824;0.529913704604688;0.433977447562501;-0.216435461152783
177;0.536271186440678;-0.013028465314572;0.523242721126106;0.499464197102476;-0.234193477727184
178;0.587796610169492;0.018368909586194;0.606165519755686;0.568803793585611;-0.237743681345942
179;0.639322033898305;-0.047615301661907;0.591706732236398;0.639804375087136;-0.224237897948888
180;0.690847457627119;0.086202161155692;0.777049618782811;0.709626350854251;-0.193040874012757
181;0.742372881355932;-0.136169447087075;0.606203434268857;0.774996571902317;-0.145875329008981
182;0.793898305084746;0.045502955644433;0.839401260729179;0.832465084463265;-0.086522833753402
183;0.845423728813559;-0.084870937993366;0.760552790820194;0.878687441342905;-0.020123562094118
184;0.896949152542373;-0.033488693896405;0.863460458645968;0.910713906202673;0.047791996096436
185;0.948474576271187;0.055278334594455;1.003752910865640;0.926263663216826;0.112340845706864
186;1.000000000000000;0.103909065350496;1.103909065350500;0.923958468001665;0.170174102404791
187;0.926440677966102;-0.111763868326521;0.814676809639581;0.903487972422375;0.220021197718247
188;0.852881355932203;0.126065870912090;0.978947226844293;0.865680293166952;0.262776618441121
189;0.779322033898305;0.066014314104698;0.845336348003003;0.812457759045955;0.301119135189542
190;0.705762711864407;-0.006786555354269;0.698976156510138;0.746669501430863;0.338761287936166
191;0.632203389830508;-0.019522119789875;0.612681270040633;0.671808570477391;0.379510055531189
192;0.558644067796610;-0.021760635014319;0.536883432782291;0.591639194045379;0.426356687211897
193;0.485084745762712;-0.030310762135174;0.454773983627538;0.509776433428809;0.480795412869602
194;0.411525423728814;0.002304562442511;0.413829986171324;0.429272455220768;0.542503334002581
195;0.337966101694915;0.005129035584877;0.343095137279793;0.352268128371061;0.609417206547977
196;0.264406779661017;0.082606279021160;0.347013058682176;0.279764057588742;0.678144784644715
197;0.190847457627119;0.152697668673337;0.343545126300456;0.211551435019572;0.744575819487859
198;0.117288135593220;0.046691443568470;0.163979579161690;0.146321824748111;0.804528726568975
199;0.043728813559322;-0.020971333838874;0.022757479720448;0.081949181270233;0.854287462939067
200;-0.029830508474576;0.062519035708763;0.032688527234186;0.015910950651742;0.890939012617112
201;-0.103389830508475;0.018322726300144;-0.085067104208331;-0.054207800676487;0.912494380567827
202;-0.176949152542373;-0.102976754356662;-0.279925906899035;-0.130198846184628;0.917841051714195
203;-0.250508474576271;0.094922183113102;-0.155586291463169;-0.212780897791705;0.906612714763589
204;-0.324067796610170;0.030706191914670;-0.293361604695499;-0.301286378434334;0.879063408389735
205;-0.397627118644068;0.013517494209946;-0.384109624434122;-0.393538850866610;0.836001987262256
206;-0.471186440677966;0.051524633552485;-0.419661807125481;-0.485949124963318;0.778793996871627
207;-0.544745762711865;0.026140632405538;-0.518605130306326;-0.573826808362717;0.709392003255267
208;-0.618305084745763;-0.094148577095543;-0.712453661841306;-0.651872105819407;0.630330017470383
209;-0.691864406779661;-0.016233767280383;-0.708098174060044;-0.714784922290781;0.544621884255791
210;-0.765423728813560;-0.014605463433153;-0.780029192246712;-0.757909244615675;0.455534699512189
211;-0.838983050847458;-0.053201137680882;-0.892184188528340;-0.777823631137381;0.366253859797445
212;-0.769067796610169;0.168210359466318;-0.600857437143852;-0.772794895222887;0.279499004055212
213;-0.699152542372881;-0.087572934616002;-0.786725476988883;-0.743031061352872;0.197174752170852
214;-0.629237288135593;-0.048381505011012;-0.677618793146605;-0.690698613785281;0.120139091769218
215;-0.559322033898305;-0.071200454902742;-0.630522488801047;-0.619703426903821;0.048147315738520
216;-0.489406779661017;-0.117421233145682;-0.606828012806699;-0.535269031691934;-0.020009927893816
217;-0.419491525423729;-0.019223951753928;-0.438715477177656;-0.443374436877384;-0.086196977713807
218;-0.349576271186441;-0.027407022993260;-0.376983294179701;-0.350131923420256;-0.152506447233709
219;-0.279661016949153;0.153007251442410;-0.126653765506743;-0.261190204083890;-0.220787531744728
220;-0.209745762711864;-0.024902474251371;-0.234648236963236;-0.181239574065702;-0.292204331694524
221;-0.139830508474576;-0.106421341288933;-0.246251849763509;-0.113675127019695;-0.366890724163459
222;-0.069915254237288;0.160345729812004;0.090430475574716;-0.060445825014348;-0.443752196183952
223;0.000000000000000;0.123467914689078;0.123467914689078;-0.022086554027893;-0.520444134898978
224;0.000186254423543;-0.022962645096318;-0.022776390672776;0.002097116098803;-0.593532542461900
225;0.000372508847085;-0.150615970397972;-0.150243461550887;0.013741163721784;-0.658819386021730
226;0.000558763270628;-0.044462781644699;-0.043904018374071;0.015090498479454;-0.711793552618873
227;0.000745017694170;-0.015594103572477;-0.014849085878307;0.008676557581229;-0.748152193018137
228;0.000931272117713;0.027606825393154;0.028538097510866;-0.002952692238727;-0.764328014461937
229;0.001117526541255;-0.026116364577648;-0.024998838036393;-0.017427093591553;-0.757957182756647
230;0.001303780964798;0.044342191290409;0.045645972255207;-0.032670001814410;-0.728230504322344
231;0.001490035388340;0.039189420943245;0.040679456331585;-0.046949334472304;-0.676086304346548
232;0.001676289811883;-0.125067890682641;-0.123391600870758;-0.058888060928571;-0.604223408337378
233;0.001862544235426;-0.094796092233143;-0.092933547997718;-0.067459866622290;-0.516932311499637
234;0.002048798658968;-0.074110609394041;-0.072061810735073;-0.071989472142075;-0.419758884084327
235;0.002235053082511;-0.050781755027817;-0.048546701945307;-0.072165484671539;-0.319027868679494
236;0.002421307506053;-0.032057550660024;-0.029636243153971;-0.068060522736327;-0.221265505443361
237;0.002607561929596;0.001246904136162;0.003854466065758;-0.060142762643147;-0.132574177305916
238;0.002793816353138;-0.302917734140415;-0.300123917787276;-0.049258295538246;-0.058026223574492
239;0.002980070776681;-0.045701464087158;-0.042721393310477;-0.036566410160913;-0.001154207475487
240;0.003166325200224;0.124244840639074;0.127411165839297;-0.023419710712377;0.036386004646885
241;0.003352579623766;-0.106670139898475;-0.103317560274709;-0.011195440908214;0.054920142293514
242;0.003538834047309;0.093372816267124;0.096911650314433;-0.001099716476467;0.056602460515095
243;0.003725088470851;0.035032100135611;0.038757188606462;0.006021679629292;0.045022048722814
244;0.003911342894394;-0.002900576370873;0.001010766523521;0.009827334678334;0.024629434104359
245;0.004097597317936;0.018245216750598;0.022342814068535;0.010544571113648;0.000078219426175
246;0.004283851741479;-0.156505601415073;-0.152221749673594;0.008932669790118;-0.024407178769988
247;0.004470106165021;-0.008453947981772;-0.003983841816751;0.006143101723835;-0.045532078197478
248;0.004656360588564;0.160394635060288;0.165050995648852;0.003496989949764;-0.061222056224809
249;0.004842615012107;0.009834777464011;0.014677392476117;0.002219540965101;-0.070669563881142
250;0.005028869435649;0.004137361348961;0.009166230784611;0.003183418329473;-0.074154846797482
251;0.005215123859192;-0.073416911269674;-0.068201787410482;0.006714652671290;-0.072706619798531
252;0.005401378282734;-0.003081373001232;0.002320005281502;0.012504620572204;-0.067697767795913
253;0.005587632706277;0.023234701262448;0.028822333968725;0.019651425146356;-0.060475485985698
254;0.005773887129819;0.042638755740895;0.048412642870714;0.026827611181763;-0.052103269972148
255;0.005960141553362;-0.037280874172350;-0.031320732618989;0.032544091517131;-0.043252146593726
256;0.006146395976904;-0.023645458375719;-0.017499062398814;0.035458411067279;-0.034234042385721
257;0.006332650400447;0.202369088660305;0.208701739060752;0.034664074822396;-0.025134590085712
258;0.006518904823990;-0.225835397049619;-0.219316492225630;0.029899558145801;-0.015984370621965
259;0.006705159247532;0.222944568045690;0.229649727293222;0.021630886427489;-0.006908293633261
260;0.006891413671075;0.033756370061311;0.040647783732385;0.010987410123957;0.001791187690965
261;0.007077668094617;0.100006081958912;0.107083750053530;-0.000438742658656;0.009636706985109
262;0.007263922518160;-0.166416447498706;-0.159152524980546;-0.010889754171725;0.016058157207245
263;0.007450176941702;-0.059003456420522;-0.051553279478820;-0.018774743026129;0.020527020610219
264;0.007636431365245;-0.027806416376531;-0.020169985011286;-0.022968665727305;0.022703494930829
265;0.007822685788787;0.042271569122048;0.050094254910835;-0.023015011326766;0.022555709733879
266;0.008008940212330;-0.167020069785047;-0.159011129572717;-0.019190351638668;0.020418357057252
267;0.008195194635873;0.047163432641630;0.055358627277503;-0.012418700140385;0.016972215140905
268;0.008381449059415;-0.121284719967446;-0.112903270908031;-0.004056254006767;0.013142698170168
269;0.008567703482958;0.006619004842461;0.015186708325419;0.004404880572659;0.009932085525652
270;0.008753957906500;0.065235588866137;0.073989546772638;0.011648300649132;0.008214790059058
271;0.008940212330043;0.032705996717709;0.041646209047752;0.016792328300966;0.008536046782306
272;0.009126466753585;0.108263350423676;0.117389817177261;0.019541573161795;0.010959021371013
273;0.009312721177128;0.100607711081905;0.109920432259033;0.020201461412674;0.015000828978836
274;0.009498975600671;-0.065090773659775;-0.055591798059105;0.019557760741289;0.019683333734313
275;0.009685230024213;0.025705615743397;0.035390845767610;0.018653653211214;0.023701805734006
276;0.009871484447756;-0.094437780640422;-0.084566296192666;0.018519247738850;0.025688161821534
277;0.010057738871298;-0.132178852139256;-0.122121113267958;0.019917466661911;0.024521501642763
278;0.010243993294841;0.092482593349371;0.102726586644211;0.023164085801837;0.019622497147487
279;0.010430247718383;0.000004984907525;0.010435232625908;0.028060116375778;0.011163945354780
280;0.010616502141926;-0.005491891460941;0.005124610680985;0.033946670328452;0.000139566734664
281;0.010802756565468;0.091112726565386;0.101915483130854;0.039862912290158;-0.011743072743957
282;0.010989010989011;0.059458369740905;0.070447380729916;0.044763897214209;-0.022344333988875
283;0.011175265412554;0.035020117387454;0.046195382800007;0.047742726371460;-0.029506633160322
284;0.011361519836096;0.125025122830500;0.136386642666596;0.048203306161750;-0.031520523521175
285;0.011547774259639;0.092978945855772;0.104526720115410;0.045945253704766;-0.027538253673409
286;0.011734028683181;0.023976325705858;0.035710354389039;0.041146992150906;-0.017829883188459
287;0.011920283106724;-0.069036110311123;-0.057115827204399;0.034260365748286;-0.003804557335580
288;0.012106537530266;-0.065155364175028;-0.053048826644762;0.025853090815068;0.012228823689908
289;0.012292791953809;0.119210187053127;0.131502979006936;0.016448118195758;0.027523524983169
290;0.012479046377352;-0.161183038867781;-0.148703992490430;0.006408256163098;0.039482359588519
291;0.012665300800894;-0.002446193663592;0.010219107137302;-0.004099576525946;0.046235508686104
292;0.012851555224437;-0.194884717689890;-0.182033162465454;-0.015049660733592;0.047068443043961
293;0.013037809647979;0.102049801445265;0.115087611093245;-0.026428511497945;0.042589955805561
294;0.013224064071522;0.086171630239342;0.099395694310864;-0.038071042733690;0.034590145417806
295;0.013410318495064;0.000116208348351;0.013526526843416;-0.049514513656145;0.025613259866232
296;0.013596572918607;-0.007083721316048;0.006512851602559;-0.059922330658091;0.018341691037253
297;0.013782827342149;-0.248628392070328;-0.234845564728179;-0.068114993740707;0.014936581489685
298;0.013969081765692;0.058117232267592;0.072086314033284;-0.072719688983380;0.016494633318162
299;0.014155336189235;-0.219243491996591;-0.205088155807356;-0.072419291543593;0.022755851998867
300;0.014341590612777;-0.231928030664330;-0.217586440051553;-0.066253323952668;0.032138496303117
301;0.014527845036320;0.007993371029844;0.022521216066164;-0.053904804565242;0.042098595918895
302;0.014714099459862;-0.094848098357051;-0.080133998897188;-0.035902931129824;0.049730513755717
303;0.014900353883405;0.041149062142337;0.056049416025742;-0.013683877497789;0.052462500474063
304;0.015086608306947;0.067697780568403;0.082784388875350;0.010521423988142;0.048674377862321
305;0.015272862730490;0.085773254520536;0.101046117251025;0.033968199922044;0.038082471789815
306;0.015459117154032;-0.069115912538299;-0.053656795384267;0.053806435434919;0.021796771622748
307;0.015645371577575;0.044937762316685;0.060583133894260;0.067546256708925;0.002041827531767
308;0.015831626001118;0.010063335031508;0.025894961032625;0.073492924061408;-0.018377693383249
309;0.016017880424660;0.082606999846992;0.098624880271652;0.071065579241316;-0.036719268763323
310;0.016204134848203;0.053615707992592;0.069819842840795;0.060933069273647;-0.050880920747808
311;0.016390389271745;0.089788842598508;0.106179231870253;0.044933678079007;-0.059769366621199
312;0.016576643695288;-0.013193786792458;0.003382856902830;0.025786815468046;-0.063377863286831
313;0.016762898118830;-0.014720145615127;0.002042752503704;0.006645308914361;-0.062579747378671
314;0.016949152542373;0.100777340530544;0.117726493072917;-0.009431386288305;-0.058722557681404
315;0.021421845574388;-0.212365546241575;-0.190943700667187;-0.019986537086603;-0.053156187768881
316;0.025894538606403;-0.050458640551401;-0.024564101944998;-0.023564188788784;-0.046834884707850
317;0.030367231638418;-0.127059444980866;-0.096692213342448;-0.019923179224167;-0.040099272470793
318;0.034839924670433;-0.038258480270765;-0.003418555600332;-0.010029717908940;-0.032684729062451
319;0.039312617702448;0.064867926204862;0.104180543907310;0.004166339872650;-0.023935920765839
320;0.043785310734463;0.082572714924176;0.126358025658639;0.020125214974665;-0.013152782542282
321;0.048258003766478;-0.101494364268014;-0.053236360501535;0.035202971131028;0.000036600239786
322;0.052730696798493;-0.047106991268317;0.005623705530177;0.047135471764847;0.015381755253757
323;0.057203389830509;0.013702487413005;0.070905877243514;0.054429464308609;0.031875739384358
324;0.061676082862524;-0.029186337575357;0.032489745287166;0.056590357446998;0.047822352014050
325;0.066148775894539;0.030181855526101;0.096330631420639;0.054150261125297;0.061099031399400
326;0.070621468926554;0.039993094295580;0.110614563222134;0.048500139390836;0.069565419206342
327;0.075094161958569;-0.092996155894013;-0.017901993935444;0.041568232110814;0.071532812573905
328;0.079566854990584;-0.017683026592923;0.061883828397661;0.035415545293785;0.066191006211055
329;0.084039548022599;-0.213209459916153;-0.129169911893555;0.031832638183353;0.053891505673716
330;0.088512241054614;0.114536171051847;0.203048412106461;0.032017839735484;0.036211618025016
331;0.092984934086629;-0.062909076099416;0.030075857987213;0.036396761967456;0.015768801528783
332;0.097457627118644;-0.120384997400222;-0.022927370281578;0.044611209578198;-0.004190737205227
333;0.101930320150659;-0.025394468342281;0.076535851808378;0.055669254235681;-0.020354002944740
334;0.106403013182674;-0.142864686463210;-0.036461673280536;0.068215061635714;-0.029943214552821
335;0.110875706214689;-0.002085761770160;0.108789944444529;0.080853878530618;-0.031236047914762
336;0.115348399246704;-0.056066499652819;0.059281899593886;0.092458961552484;-0.023897198166506
337;0.119821092278719;0.217777870918415;0.337598963197135;0.102394508772342;-0.009051881493439
338;0.124293785310734;0.113846538732960;0.238140324043694;0.110609767822763;0.010915858116085
339;0.128766478342750;-0.249688650318450;-0.120922171975701;0.117589476058851;0.032801234557029
340;0.133239171374765;0.044132693172761;0.177371864547525;0.124177917348092;0.053166964039729
341;0.137711864406780;-0.139813787581107;-0.002101923174328;0.131321171684979;0.068967114620887
342;0.142184557438795;-0.025505517988081;0.116679039450714;0.139788853766823;0.078088615242831
343;0.146657250470810;0.016440407331873;0.163097657802683;0.149939505668535;0.079713000565410
344;0.151129943502825;0.074773402880812;0.225903346383637;0.161582638747925;0.074438293570828
345;0.155602636534840;-0.027304694940291;0.128297941594549;0.173968057402461;0.064145368500394
346;0.160075329566855;0.157630014654608;0.317705344221463;0.185904706416750;0.051636455509977
347;0.164548022598870;-0.048093715177885;0.116454307420986;0.195983148216041;0.040110613294225
348;0.169020715630885;0.032751212082969;0.201771927713854;0.202853901977917;0.032568948751344
349;0.173493408662900;0.066473412062760;0.239966820725660;0.205502708158515;0.031257739105639
350;0.177966101694915;0.008518859272116;0.186484960967031;0.203465313753109;0.037256000185948
351;0.173493408662900;0.088095278538105;0.261588687201005;0.196937828960050;0.050291796303908
352;0.169020715630885;0.032321313784760;0.201342029415645;0.186760830074361;0.068829028731492
353;0.164548022598870;-0.078414618366409;0.086133404232461;0.174281253648393;0.090410213850749
354;0.160075329566855;-0.180537335138609;-0.020462005571754;0.161120276599750;0.112183443862064
355;0.155602636534840;0.185859294855571;0.341461931390410;0.148892972641109;0.131498356414345
356;0.151129943502825;-0.060453008877446;0.090676934625379;0.138933350514583;0.146438871569962
357;0.146657250470810;0.010335972231065;0.156993222701875;0.132075368056819;0.156174893131715
358;0.142184557438795;0.056316695514598;0.198501252953393;0.128527890727068;0.161057571338585
359;0.137711864406780;0.011359699673400;0.149071564080180;0.127862394355826;0.162442448936266
360;0.133239171374765;-0.090472621279803;0.042766550094961;0.129110667188922;0.162287654756200
361;0.128766478342750;-0.046771458245186;0.081995020097564;0.130950177472940;0.162625946583456
362;0.124293785310734;-0.012488994722311;0.111804790588424;0.131940739759945;0.165038027520442
363;0.119821092278719;0.147895849150403;0.267716941429122;0.130769831916002;0.170253061036356
364;0.115348399246704;-0.086081569000696;0.029266830246008;0.126465853889188;0.177970259275770
365;0.110875706214689;0.078466846728782;0.189342552943471;0.118547584206477;0.186940086975197
366;0.106403013182674;0.030862313994853;0.137265327177527;0.107091631917199;0.195278986652970
367;0.101930320150659;-0.023386004212915;0.078544315937744;0.092714732266581;0.200934779086315
368;0.097457627118644;-0.105697274596013;-0.008239647477369;0.076481312933480;0.202186156367191
369;0.092984934086629;-0.028414095462616;0.064570838624013;0.059756586515021;0.198057008799682
370;0.088512241054614;-0.008669028245931;0.079843212808683;0.044030325942713;0.188553259098687
371;0.084039548022599;-0.146939507448636;-0.062899959426037;0.030736480215017;0.174676738121446
372;0.079566854990584;0.019218224487079;0.098785079477662;0.021089938308858;0.158223566159291
373;0.075094161958569;-0.082229327629018;-0.007135165670449;0.015955718348393;0.141420242976332
374;0.070621468926554;-0.009424058795972;0.061197410130581;0.015759428042370;0.126480131904670
375;0.066148775894539;0.033621334095424;0.099770109989963;0.020442429362465;0.115172737224129
376;0.061676082862524;-0.090465405924684;-0.028789323062160;0.029461478116232;0.108489413163870
377;0.057203389830509;-0.028825636120570;0.028377753709939;0.041830647748588;0.106466188445165
378;0.052730696798493;0.035006275753418;0.087736972551911;0.056202395473719;0.108192776640862
379;0.048258003766478;-0.183585914250431;-0.135327910483952;0.070983682822128;0.112002237089994
380;0.043785310734463;0.103597590824548;0.147382901559011;0.084481215355063;0.115803399311010
381;0.039312617702448;0.242446114493936;0.281758732196385;0.095066684284457;0.117492680497403
382;0.034839924670433;0.095940050940798;0.130779975611231;0.101348641546460;0.115367207593886
383;0.030367231638418;-0.031577199500941;-0.001209967862523;0.102333289358566;0.108460155154847
384;0.025894538606403;0.042862267985940;0.068756806592343;0.097553463440059;0.096733341861315
385;0.021421845574388;-0.103598477851339;-0.082176632276951;0.087144956564430;0.081090261814670
386;0.016949152542373;0.187786546049586;0.204735698591959;0.071853178741207;0.063210107062544
387;0.016142050040355;0.094070440335213;0.110212490375568;0.052961262128032;0.045241412696005
388;0.015334947538337;0.078734577993525;0.094069525531862;0.032142295272214;0.029422341081851
389;0.014527845036320;-0.087587426195667;-0.073059581159348;0.011251558582623;0.017705212134345
390;0.013720742534302;0.031994913438233;0.045715655972535;-0.007913169955478;0.011453862820345
391;0.012913640032284;-0.055829428485090;-0.042915788452806;-0.023846764659206;0.011259098442960
392;0.012106537530266;-0.031142941854690;-0.019036404324423;-0.035528606671165;0.016889105706289
393;0.011299435028249;-0.057000991664219;-0.045701556635970;-0.042537487272828;0.027366426597642
394;0.010492332526231;-0.102573361562871;-0.092081029036641;-0.045068095443772;0.041145017997070
395;0.009685230024213;-0.090874558687433;-0.081189328663219;-0.043845018431343;0.056350336049865
396;0.008878127522195;-0.020989733405559;-0.012111605883364;-0.039949548148589;0.071041123917793
397;0.008071025020178;-0.169886408417261;-0.161815383397083;-0.034591978134469;0.083452859442410
398;0.007263922518160;0.060760057584608;0.068023980102768;-0.028873685220711;0.092189394024226
399;0.006456820016142;-0.011779828926796;-0.005323008910654;-0.023586314058723;0.096340632697686
400;0.005649717514124;0.069916033364417;0.075565750878541;-0.019088724168927;0.095518595808023
401;0.004842615012107;0.026964864171660;0.031807479183766;-0.015286972274256;0.089819295832258
402;0.004035512510089;0.049428705537941;0.053464218048030;-0.011721385418142;0.079730609285704
403;0.003228410008071;-0.148312102251590;-0.145083692243519;-0.007742019853022;0.066014168734340
404;0.002421307506053;-0.102026438568297;-0.099605131062243;-0.002734282692897;0.049590637684890
405;0.001614205004036;-0.044699501074453;-0.043085296070417;0.003655528598880;0.031452124301096
406;0.000807102502018;0.010965859132760;0.011772961634778;0.011346757650798;0.012613754675689
407;0.000000000000000;0.112873645202828;0.112873645202828;0.019745769578676;-0.005899165992797
408;0.000000000000000;-0.028996304080003;-0.028996304080003;0.027786406382202;-0.023047459788702
409;0.000000000000000;0.126155071814115;0.126155071814115;0.034089446279785;-0.037786900074200
410;0.000000000000000;0.047542481170727;0.047542481170727;0.037215803135225;-0.049117799665693
411;0.000000000000000;0.117411675149372;0.117411675149372;0.035967225442144;-0.056189469434627
412;0.000000000000000;0.012694706804365;0.012694706804365;0.029675828291223;-0.058448993954424
413;0.000000000000000;-0.065681592894808;-0.065681592894808;0.018422601873195;-0.055797155526967
414;0.000000000000000;-0.148139907157878;-0.148139907157878;0.003135591561497;-0.048697173238303
415;0.000000000000000;0.015548899590389;0.015548899590389;-0.014461032503893;-0.038183423793766
416;0.000000000000000;0.081855136852100;0.081855136852100;-0.032049002764637;-0.025740046796928
417;0.000000000000000;-0.029258813083439;-0.029258813083439;-0.047042916350457;-0.013057613259769
418;0.000000000000000;-0.054078641648853;-0.054078641648853;-0.056991684901730;-0.001717566466445
419;0.000000000000000;-0.030864181528011;-0.030864181528011;-0.059988152979461;0.007115879592109
420;0.000000000000000;-0.109659330152547;-0.109659330152547;-0.055016158711942;0.012910413254208
421;0.000000000000000;-0.049300981531645;-0.049300981531645;-0.042172373525784;0.015822860808211
422;0.000000000000000;-0.018073935641504;-0.018073935641504;-0.022719571746639;0.016579479173296
423;0.000000000000000;0.004584110571371;0.004584110571371;0.001044682024315;0.016212270211986
424;0.000000000000000;-0.006378312002233;-0.006378312002233;0.026089244300463;0.015726835456002
425;0.000000000000000;0.061133519406524;0.061133519406524;0.049077045927194;0.015795949531906
426;0.000000000000000;0.010931769377487;0.010931769377487;0.066853847870226;0.016562937920818
427;0.000000000000000;0.181401545028038;0.181401545028038;0.076921557288832;0.017605261617944
428;0.000000000000000;0.031202382832927;0.031202382832927;0.077820986596860;0.018063439645909
429;0.000000000000000;0.180449377172419;0.180449377172419;0.069362769771225;0.016897343146037
430;0.000000000000000;-0.072312147957042;-0.072312147957042;0.052669051242089;0.013202001173979
431;0.000000000000000;0.052654703774956;0.052654703774956;0.030018508034670;0.006504183829222
432;0.000000000000000;-0.026025086170612;-0.026025086170612;0.004518260909303;-0.003030622577107
433;0.000000000000000;0.060014250880863;0.060014250880863;-0.020346813019431;-0.014528034404179
434;0.000000000000000;0.059393079564875;0.059393079564875;-0.041218246620546;-0.026487621750125
435;0.000000000000000;-0.218602161274824;-0.218602161274824;-0.055345078017431;-0.037003908247037
436;0.000000000000000;-0.132704314952029;-0.132704314952029;-0.060969990483460;-0.044085287466655
437;0.000000000000000;-0.144101359763891;-0.144101359763891;-0.057564310931815;-0.046014243533086
438;0.000000000000000;0.040184449703982;0.040184449703982;-0.045879630559643;-0.041685681488865
439;0.000000000000000;0.147020128084852;0.147020128084852;-0.027812050218636;-0.030863203001296
440;0.000000000000000;-0.032681422878591;-0.032681422878591;-0.006103132569938;-0.014305457019565
441;0.000000000000000;0.081232300464080;0.081232300464080;0.016074655303599;0.006264850143443
442;0.000000000000000;0.054554010352612;0.054554010352612;0.035584268795990;0.028351166046956
443;0.000000000000000;-0.105163230952085;-0.105163230952085;0.049772311657353;0.049008815217528
444;0.000000000000000;0.039746699579531;0.039746699579531;0.056833569579181;0.065261845611438
445;0.000000000000000;-0.075189473868189;-0.075189473868189;0.056040049142124;0.074553367442797
446;0.000000000000000;0.151626689664595;0.151626689664595;0.047803833959642;0.075165558427808
447;0.000000000000000;-0.003256650919448;-0.003256650919448;0.033568375774495;0.066544994572813
448;0.000000000000000;0.163599965727829;0.163599965727829;0.015548673209416;0.049474322850780
449;0.000000000000000;-0.042505849061003;-0.042505849061003;-0.003636575172040;0.026045086470377
450;0.000000000000000;0.058943336671822;0.058943336671822;-0.021381651351754;-0.000588141346044
451;0.000000000000000;-0.006279122571833;-0.006279122571833;-0.035493043189829;-0.026655028349867
452;0.000000000000000;-0.202195893005179;-0.202195893005179;-0.044508093458449;-0.048357375767419
453;0.000000000000000;-0.098213152577905;-0.098213152577905;-0.047883153575587;-0.062498046175142
454;0.000000000000000;0.061251129816695;0.061251129816695;-0.046022764242496;-0.067030472094639
455;0.000000000000000;-0.005488612998868;-0.005488612998868;-0.040147852225018;-0.061415288520369
456;0.000000000000000;-0.111873200245273;-0.111873200245273;-0.032028195741291;-0.046707283951537
457;0.000000000000000;-0.062637853886714;-0.062637853886714;-0.023627855010294;-0.025354010471468
458;0.000000000000000;0.024951774056280;0.024951774056280;-0.016727668626638;-0.000751133049120
459;0.000000000000000;-0.099301900654960;-0.099301900654960;-0.012593252528399;0.023349168994517
460;0.000000000000000;0.097495022481131;0.097495022481131;-0.011749027381975;0.043455318604996
461;0.000000000000000;-0.064070950672606;-0.064070950672606;-0.013899671248674;0.056862937174877
462;0.000000000000000;0.180886262051925;0.180886262051925;-0.018013236337220;0.062005503059216
463;0.000000000000000;-0.107986625073883;-0.107986625073883;-0.022549842872187;0.058588100600539
464;0.000000000000000;0.019918944407526;0.019918944407526;-0.025792040426476;0.047509003619255
465;0.000000000000000;-0.152102656176895;-0.152102656176895;-0.026213003264904;0.030610911466786
466;0.000000000000000;-0.072363112528907;-0.072363112528907;-0.022810732971005;0.010326388979657
467;0.000000000000000;-0.059325031501080;-0.059325031501080;-0.015342185556852;-0.010711200502876
468;0.000000000000000;0.040133633981880;0.040133633981880;-0.004409866407047;-0.030027716108831
469;0.000000000000000;0.094213331923694;0.094213331923694;0.008618473312173;-0.045593949671652
470;0.000000000000000;0.030048596759573;0.030048596759573;0.021844201221698;-0.056014858528137
471;0.000000000000000;-0.037307065863100;-0.037307065863100;0.033183314396186;-0.060621420380894
472;0.000000000000000;0.081548850809250;0.081548850809250;0.040758118982069;-0.059477870197552
473;0.000000000000000;0.079888699215672;0.079888699215672;0.043260409446079;-0.053320526884658
474;0.000000000000000;0.012020528195636;0.012020528195636;0.040216103212463;-0.043439761864647
475;0.000000000000000;0.057124762971448;0.057124762971448;0.032099381713691;-0.031510078591538
476;0.000000000000000;0.041279601031139;0.041279601031139;0.020272490625369;-0.019371852686002
477;0.000000000000000;-0.098696188335152;-0.098696188335152;0.006760077782247;-0.008775943399580
478;0.000000000000000;0.075956832591478;0.075956832591478;-0.006101936890249;-0.001117398803568
479;0.000000000000000;-0.065720129909835;-0.065720129909835;-0.016079329724256;0.002799820035733
480;0.000000000000000;-0.060391848137617;-0.060391848137617;-0.021438985422218;0.002917059829120
481;0.000000000000000;0.017694682232941;0.017694682232941;-0.021261569638536;-0.000050356265579
482;0.000000000000000;-0.030750346986275;-0.030750346986275;-0.015609939913699;-0.004734017163931
483;0.000000000000000;-0.013182035291589;-0.013182035291589;-0.005521884649350;-0.009375362170386
484;0.000000000000000;0.059535767388410;0.059535767388410;0.007172518343931;-0.012188502887161
485;0.000000000000000;0.104683278430523;0.104683278430523;0.020177130372777;-0.011752395426216
486;0.000000000000000;-0.019795863261184;-0.019795863261184;0.031142125075706;-0.007348031457076
487;0.000000000000000;0.032767816390720;0.032767816390720;0.038089778733534;0.000838150583161
488;0.000000000000000;-0.023830150458973;-0.023830150458973;0.039778629215550;0.011698676077266
489;0.000000000000000;0.022959689322031;0.022959689322031;0.035941876864726;0.023392293258458
490;0.000000000000000;0.043999790482263;0.043999790482263;0.027358020484163;0.033704347013008
491;0.000000000000000;-0.061686592888923;-0.061686592888923;0.015741066758595;0.040510008219163
492;0.000000000000000;0.027483678691167;0.027483678691167;0.003469033073756;0.042243117423557
493;0.000000000000000;0.060110203246830;0.060110203246830;-0.006802616874502;0.038266813198514
494;0.000000000000000;0.009230795123896;0.009230795123896;-0.012576365936352;0.029058828018290
495;0.000000000000000;0.172984139157236;0.172984139157236;-0.011922723989763;0.016162166490806
496;0.000000000000000;-0.060855744473832;-0.060855744473832;-0.003795956811798;0.001903301958378
497;0.000000000000000;-0.073705977169781;-0.073705977169781;0.011796471654419;-0.011066564744451
498;0.000000000000000;-0.174987930638763;-0.174987930638763;0.033796713631709;-0.020309167041562
499;0.000000000000000;0.091048257964711;0.091048257964711;0.060267481018734;-0.024097112024851
500;0.000000000000000;0.086708255294733;0.086708255294733;0.088698219306579;-0.021760744558818
